row_id,energy
94993.0,2019.081103780105
94994.0,1944.9638424614539
94995.0,1890.3641861547178
94996.0,1862.3060350456083
94997.0,1866.1862396516276
94998.0,1905.3716340780434
94999.0,1976.1994276459584
95000.0,2064.300666287904
95001.0,2148.433186330974
95002.0,2211.051582315678
95003.0,2247.570985922006
95004.0,2266.3780276737443
95005.0,2279.6113647790103
95006.0,2293.0816052972737
95007.0,2304.225859499852
95008.0,2309.0035181318754
95009.0,2309.8404769241056
95010.0,2315.7491032507937
95011.0,2333.6370972525942
95012.0,2358.9148213898366
95013.0,2374.904799086117
95014.0,2362.784491489891
95015.0,2314.2484360523445
95016.0,2236.7731897284943
95017.0,2148.2216308514994
95018.0,2066.693683532479
95019.0,2004.336820650127
95020.0,1968.2436461104023
95021.0,1963.8802781637714
95022.0,1994.6827169004139
95023.0,2057.056581170027
95024.0,2136.6999333252493
95025.0,2212.4356211324985
95026.0,2266.7806648924484
95027.0,2295.2094928130655
95028.0,2306.1644017853428
95029.0,2311.8356318656247
95030.0,2318.080888987468
95031.0,2322.3795504651152
95032.0,2320.7281559879157
95033.0,2315.584405757145
95034.0,2315.9869631895976
95035.0,2328.864215315498
95036.0,2349.641564873803
95037.0,2361.65095405547
95038.0,2346.0737275019465
95039.0,2294.602916078436
95040.0,2214.7083814439247
95041.0,2124.2413720132454
95042.0,2041.2855500406429
95043.0,1977.9678414739967
95044.0,1941.356404071167
95045.0,1936.8894301864705
95046.0,1967.9719615945398
95047.0,2030.976095528079
95048.0,2111.5642941584438
95049.0,2188.522220537301
95050.0,2244.3286227338085
95051.0,2274.4190629536906
95052.0,2287.1968626684948
95053.0,2294.8136461641175
95054.0,2303.0893114187675
95055.0,2309.4666576277086
95056.0,2309.9072672407865
95057.0,2306.8358598157
95058.0,2309.2604112969257
95059.0,2324.081188607169
95060.0,2346.698270921364
95061.0,2360.421255582502
95062.0,2346.4122549441913
95063.0,2296.348264989951
95064.0,2217.6863457777504
95065.0,2128.268164943589
95066.0,2046.170965434482
95067.0,1983.5183109084478
95068.0,1947.3779070023475
95069.0,1943.1902179259246
95070.0,1974.3650593501075
95071.0,2037.2815508910555
95072.0,2117.611144860108
95073.0,2194.150159140289
95074.0,2249.389340960866
95075.0,2278.7772637194157
95076.0,2290.7309331337337
95077.0,2297.415990718257
95078.0,2304.666348828873
95079.0,2309.9384919202053
95080.0,2309.2070470272092
95081.0,2304.9088456546997
95082.0,2306.062775261812
95083.0,2319.578574415934
95084.0,2340.864146764824
95085.0,2353.235095046517
95086.0,2337.8575841747147
95087.0,2286.4106164204004
95088.0,2206.351160312852
95089.0,2115.5186854511667
95090.0,2031.9861647057041
95091.0,1967.8708969266538
95092.0,1930.2324473937763
95093.0,1924.50142388376
95094.0,1954.0762671154935
95095.0,2015.3234361076918
95096.0,2093.900701812663
95097.0,2168.589973055634
95098.0,2221.8671773288343
95099.0,2249.1659938585362
95100.0,2258.8888103850527
95101.0,2263.18728627114
95102.0,2267.8823508366386
95103.0,2270.4188659921074
95104.0,2266.7615505849335
95105.0,2259.339383093678
95106.0,2257.165775399124
95107.0,2267.1476664493625
95108.0,2284.6931059604044
95109.0,2293.121024677084
95110.0,2273.604295962975
95111.0,2217.8321678955804
95112.0,2133.2755041696923
95113.0,2037.7913832542026
95114.0,1949.4741150614948
95115.0,1880.466026784578
95116.0,1837.8553142876801
95117.0,1827.1046766336551
95118.0,1851.6479131554265
95119.0,1907.889864723824
95120.0,1981.5294144876977
95121.0,2051.3919746687125
95122.0,2099.9989851502305
95123.0,2122.831225082372
95124.0,2128.3393133047193
95125.0,2128.723785085969
95126.0,2129.8545794231622
95127.0,2129.225171698114
95128.0,2122.8479551783453
95129.0,2113.1980943162566
95130.0,2109.3331490706923
95131.0,2118.2016256696425
95132.0,2135.2500305664867
95133.0,2143.8321306819375
95134.0,2125.151531092272
95135.0,2070.9236555378275
95136.0,1988.6405739263384
95137.0,1896.175231764868
95138.0,1811.632145890887
95139.0,1747.1579226314284
95140.0,1709.8388987285668
95141.0,1705.1296260670538
95142.0,1736.4493821390167
95143.0,1800.1820899262746
95144.0,1881.9993637093644
95145.0,1960.6931077704771
95146.0,2018.7451934717444
95147.0,2051.5910148571693
95148.0,2067.630296666288
95149.0,2079.0075396960324
95150.0,2091.531934437708
95151.0,2102.6319737539266
95152.0,2108.251363442074
95153.0,2110.7934483719046
95154.0,2119.2414476533095
95155.0,2140.4676479998743
95156.0,2169.84112536016
95157.0,2190.637690968424
95158.0,2183.9831657342643
95159.0,2141.5160609637674
95160.0,2070.6531021475544
95161.0,1989.1941432998258
95162.0,1915.1735288669008
95163.0,1860.6712521948155
95164.0,1832.7112039951808
95165.0,1836.6902252815603
95166.0,1875.9751406268274
95167.0,1946.9031497929577
95168.0,2035.1052891244547
95169.0,2119.3393853330867
95170.0,2182.0600233193836
95171.0,2218.6823250963234
95172.0,2237.592911494767
95173.0,2250.930430006929
95174.0,2264.505478950047
95175.0,2275.755158830527
95176.0,2280.6388506045496
95177.0,2281.582440192008
95178.0,2287.598285134139
95179.0,2305.594075716034
95180.0,2330.9801645220946
95181.0,2347.079065078576
95182.0,2335.0682286186457
95183.0,2286.6421826596993
95184.0,2209.2774741908734
95185.0,2120.83697158304
95186.0,2039.420588952175
95187.0,1977.1757891684922
95188.0,1941.1951661112546
95189.0,1936.9448279899811
95190.0,1967.8607648378782
95191.0,2030.3485854307887
95192.0,2110.1063420345254
95193.0,2185.956872314173
95194.0,2240.417186456392
95195.0,2268.9617025396487
95196.0,2280.03270731567
95197.0,2285.8204306889297
95198.0,2292.1825684290598
95199.0,2296.5984876760176
95200.0,2295.0647179346797
95201.0,2290.0389492122267
95202.0,2290.5598347227065
95203.0,2303.5557512826217
95204.0,2324.4520914125255
95205.0,2336.580787075235
95206.0,2321.1231726775577
95207.0,2269.7722688438853
95208.0,2189.997926991561
95209.0,2099.6513852688267
95210.0,2016.8162956871322
95211.0,1953.619573928076
95212.0,1917.129367487364
95213.0,1912.7838584464484
95214.0,1943.9880783135063
95215.0,2007.1141140471564
95216.0,2087.8244175411205
95217.0,2164.904641584733
95218.0,2220.8335239585313
95219.0,2251.0466165976372
95220.0,2263.9472306991215
95221.0,2271.686980275241
95222.0,2280.085753032024
95223.0,2286.5863378971153
95224.0,2287.1503070531476
95225.0,2284.202369794505
95226.0,2286.7504918071268
95227.0,2301.694929759094
95228.0,2324.435752575801
95229.0,2338.2825473555527
95230.0,2324.39741621528
95231.0,2274.457344907429
95232.0,2195.919383264878
95233.0,2106.625188708005
95234.0,2024.6519939758316
95235.0,1962.1233525274338
95236.0,1926.106959808697
95237.0,1922.0432698501263
95238.0,1953.3420881536683
95239.0,2016.38252417545
95240.0,2096.836020080057
95241.0,2173.4988836109465
95242.0,2228.8618518877893
95243.0,2258.373488186087
95244.0,2270.4507881305294
95245.0,2277.2593831546037
95246.0,2284.633175546483
95247.0,2290.028639708517
95248.0,2289.4203926391806
95249.0,2285.2452558231294
95250.0,2286.522106716502
95251.0,2300.1606738988257
95252.0,2321.56885105003
95253.0,2334.062230958097
95254.0,2318.8069686048693
95255.0,2267.4820563491
95256.0,2187.544452827979
95257.0,2096.8336177685633
95258.0,2013.4225141895754
95259.0,1949.4284311109745
95260.0,1911.910924005724
95261.0,1906.3005908641699
95262.0,1935.995862642456
95263.0,1997.3631886193375
95264.0,2076.0603300328103
95265.0,2150.8691860155536
95266.0,2204.2656743944904
95267.0,2231.683464754827
95268.0,2241.52493522185
95269.0,2245.9417355695336
95270.0,2250.7547855558387
95271.0,2253.408937556282
95272.0,2249.8689009130567
95273.0,2242.5636446252147
95274.0,2240.506571124141
95275.0,2250.6046099388504
95276.0,2268.265801393305
95277.0,2276.80906687162
95278.0,2257.4072704096784
95279.0,2201.7496507861692
95280.0,2117.3070624290203
95281.0,2021.936574577091
95282.0,1933.7324879268258
95283.0,1864.8371205168403
95284.0,1822.3386590710659
95285.0,1811.6997935513625
95286.0,1836.3543142242595
95287.0,1892.707052927488
95288.0,1966.456883814034
95289.0,2036.4292101446135
95290.0,2085.1454628790393
95291.0,2108.086412279945
95292.0,2113.702668335271
95293.0,2114.1947575022773
95294.0,2115.432610002659
95295.0,2114.9096924823502
95296.0,2108.6383895112494
95297.0,2099.093856884384
95298.0,2095.333645943164
95299.0,2104.3062543366423
95300.0,2121.4581799818425
95301.0,2130.1431813040617
95302.0,2111.5648549247167
95303.0,2057.438616171951
95304.0,1975.256526584003
95305.0,1882.8915233406517
95306.0,1798.4481149951641
95307.0,1734.0728996338937
95308.0,1696.8522058041824
95309.0,1692.2405772382126
95310.0,1723.6572833189584
95311.0,1787.486238973443
95312.0,1869.3990504596018
95313.0,1948.1876140914803
95314.0,2006.3337933056562
95315.0,2039.2729742781362
95316.0,2055.4048739103796
95317.0,2066.8739852204785
95318.0,2079.489490965608
95319.0,2090.6798763236243
95320.0,2096.388839455914
95321.0,2099.019717643639
95322.0,2107.55572246004
95323.0,2128.8691331298683
95324.0,2158.329018164185
95325.0,2179.211181409337
95326.0,2172.6414364400944
95327.0,2130.258287277514
95328.0,2059.478452178513
95329.0,1978.1017779765984
95330.0,1904.1626019894793
95331.0,1849.7409104874719
95332.0,1821.8605871585166
95333.0,1825.918466047109
95334.0,1865.28136481144
95335.0,1936.2864763502284
95336.0,2024.5648302014486
95337.0,2108.8742463245976
95338.0,2171.66930292281
95339.0,2208.3651153672945
95340.0,2227.3482979021505
95341.0,2240.75749149061
95342.0,2254.4032879750143
95343.0,2265.7227814448324
95344.0,2270.675346496217
95345.0,2271.6868627458343
95346.0,2277.769681490511
95347.0,2295.8314868245684
95348.0,2321.28262520839
95349.0,2337.445604093349
95350.0,2325.497868701253
95351.0,2277.13394059626
95352.0,2199.8303608740616
95353.0,2111.449992071981
95354.0,2030.0927425337147
95355.0,1967.9060694044904
95356.0,1931.982560921452
95357.0,1927.7883196966145
95358.0,1958.7593302307118
95359.0,2021.3011958283525
95360.0,2101.111963345556
95361.0,2177.014465100052
95362.0,2231.525705990304
95363.0,2260.120098872816
95364.0,2271.2399253369845
95365.0,2277.0754101882353
95366.0,2283.484244160005
95367.0,2287.9457894188276
95368.0,2286.456570561048
95369.0,2281.474272746922
95370.0,2282.0375444073434
95371.0,2295.0747576419267
95372.0,2316.0113003163415
95373.0,2328.1790998035985
95374.0,2312.7594859844453
95375.0,2261.4454750247123
95376.0,2181.706913945474
95377.0,2091.395036564733
95378.0,2008.5934906294945
95379.0,1945.4291876221487
95380.0,1908.9702709050077
95381.0,1904.6549184913265
95382.0,1935.8881578893602
95383.0,1999.0420721186495
95384.0,2079.779109214718
95385.0,2156.884918154101
95386.0,2212.8382329862616
95387.0,2243.074601977033
95388.0,2255.9973327256403
95389.0,2263.7580357074253
95390.0,2272.1765951640946
95391.0,2278.6957966228324
95392.0,2279.2772089359282
95393.0,2276.345538134621
95394.0,2278.9087467101785
95395.0,2293.867088202083
95396.0,2316.620628477346
95397.0,2330.478951644479
95398.0,2316.6041568972837
95399.0,2266.6732271349424
95400.0,2188.143209405579
95401.0,2098.855758413605
95402.0,2016.8881042515845
95403.0,1954.3637977985263
95404.0,1918.350531993028
95405.0,1914.2887584251014
95406.0,1945.5882802259769
95407.0,2008.6282045506773
95408.0,2089.07997133198
95409.0,2165.7398861519346
95410.0,2221.098684036225
95411.0,2250.604926237348
95412.0,2262.6756064280735
95413.0,2269.476354158646
95414.0,2276.8410699026053
95415.0,2282.226226318816
95416.0,2281.606438732933
95417.0,2277.418527025494
95418.0,2278.681367118212
95419.0,2292.3046861286753
95420.0,2313.6963763417857
95421.0,2326.1720292253963
95422.0,2310.8977985047454
95423.0,2259.5526753583886
95424.0,2179.593617310266
95425.0,2088.860083045183
95426.0,2005.42503461026
95427.0,1941.405760123971
95428.0,1903.8618142277726
95429.0,1898.2237941510332
95430.0,1927.8901301584435
95431.0,1989.2272709105216
95432.0,2067.8929770932027
95433.0,2142.6691473599953
95434.0,2196.0316991286236
95435.0,2223.4143016450553
95436.0,2233.219332765239
95437.0,2237.5984420645614
95438.0,2242.372549172649
95439.0,2244.9865064073015
95440.0,2241.40502312027
95441.0,2234.0570683934457
95442.0,2231.956044809764
95443.0,2242.0088821206205
95444.0,2259.6236209404105
95445.0,2268.1191830167004
95446.0,2248.668432813693
95447.0,2192.9606096133393
95448.0,2108.466568413714
95449.0,2013.0433790945694
95450.0,1924.7853430621008
95451.0,1855.8347791331578
95452.0,1813.2798748811736
95453.0,1802.5833211859028
95454.0,1827.1789093013413
95455.0,1883.4714721212258
95456.0,1957.15988491946
95457.0,2027.0695521649805
95458.0,2075.721906066333
95459.0,2098.5977182222514
95460.0,2104.1476000227713
95461.0,2104.5720793926935
95462.0,2105.741088091198
95463.0,2105.1480943694087
95464.0,2098.8054844720577
95465.0,2089.18841593498
95466.0,2085.354441908278
95467.0,2094.252061919933
95468.0,2111.327775831061
95469.0,2119.9353440791056
95470.0,2101.2783653652596
95471.0,2047.072257164274
95472.0,1964.8090832288929
95473.0,1872.3617830189746
95474.0,1787.834867435504
95475.0,1723.3749369786515
95476.0,1686.0683226761112
95477.0,1681.3695708064504
95478.0,1712.6979533645838
95479.0,1776.4373879572042
95480.0,1858.259483585504
95481.0,1936.9561393729593
95482.0,1995.0092216311912
95483.0,2027.8541194765785
95484.0,2043.890552815181
95485.0,2055.263017734558
95486.0,2067.7807001272117
95487.0,2078.8720883689966
95488.0,2084.480883883015
95489.0,2087.0104272772955
95490.0,2095.4439335170155
95491.0,2116.6536852791924
95492.0,2146.008754591754
95493.0,2166.784948882128
95494.0,2160.1080853675153
95495.0,2117.616671774587
95496.0,2046.7274301286625
95497.0,1965.2402110927376
95498.0,1891.189355876811
95499.0,1836.6548547051248
95500.0,1808.6605952798366
95501.0,1812.6034157222475
95502.0,1851.8501378274004
95503.0,1922.7379586917812
95504.0,2010.8979121115615
95505.0,2095.0878223647896
95506.0,2157.7622720327267
95507.0,2194.336380924198
95508.0,2213.1967677812618
95509.0,2226.4820781229146
95510.0,2240.0029084066146
95511.0,2251.1963573954463
95512.0,2256.021804417752
95513.0,2256.905133880062
95514.0,2262.8587019243273
95515.0,2280.7901975552672
95516.0,2306.1099721910205
95517.0,2322.1405383028714
95518.0,2310.0593461899794
95519.0,2261.560922542183
95520.0,2184.1218136490215
95521.0,2095.6048872879996
95522.0,2014.1100571023437
95523.0,1951.784785590319
95524.0,1915.7216663971235
95525.0,1911.3868075970995
95526.0,1942.216199206907
95527.0,2004.6154501026795
95528.0,2084.2826127633116
95529.0,2160.0405251823186
95530.0,2214.4061979887774
95531.0,2242.854049820739
95532.0,2253.8263681014523
95533.0,2259.513383521346
95534.0,2265.7727927517335
95535.0,2270.0839639473793
95536.0,2268.4434277421733
95537.0,2263.308875386182
95538.0,2263.718961449613
95539.0,2276.602064220635
95540.0,2297.3835778027947
95541.0,2309.395435856001
95542.0,2293.8189745979416
95543.0,2242.347216576595
95544.0,2162.4500152454634
95545.0,2071.978610901878
95546.0,1989.0166578191581
95547.0,1925.6910740558073
95548.0,1889.0700095843404
95549.0,1884.5916490931104
95550.0,1915.6610267974986
95551.0,1978.6502324738315
95552.0,2059.2217209588807
95553.0,2136.161148075365
95554.0,2191.9472547617283
95555.0,2222.0155962174836
95556.0,2234.7694870192922
95557.0,2242.3605446619895
95558.0,2250.608660449517
95559.0,2256.956627013347
95560.0,2257.3660203520576
95561.0,2254.261553685081
95562.0,2256.651196730598
95563.0,2271.435210298656
95564.0,2294.0136675647523
95565.0,2307.6961599861543
95566.0,2293.6447941447645
95567.0,2243.5365603668483
95568.0,2164.8285131664534
95569.0,2075.362314751495
95570.0,1993.2152027547738
95571.0,1930.510735635213
95572.0,1894.3166139462999
95573.0,1890.0732969295198
95574.0,1921.1905954033036
95575.0,1984.0476242469815
95576.0,2064.315831151069
95577.0,2140.791529489779
95578.0,2195.9654621171653
95579.0,2225.28619814662
95580.0,2237.1707391454206
95581.0,2243.7847225906035
95582.0,2250.9620569165327
95583.0,2256.159222774134
95584.0,2255.3508435118874
95585.0,2250.97374706567
95586.0,2252.0468174429393
95587.0,2265.4797898759916
95588.0,2286.6805647994715
95589.0,2298.96474185184
95590.0,2283.498482965402
95591.0,2231.960787554031
95592.0,2151.808621391251
95593.0,2060.8814514623346
95594.0,1977.2522481261572
95595.0,1913.038307843795
95596.0,1875.299193624418
95597.0,1869.465511092671
95598.0,1898.9356989339224
95599.0,1960.0762142517742
95600.0,2038.5448262020457
95601.0,2113.1234419315756
95602.0,2166.2879873752654
95603.0,2193.4721403176527
95604.0,2203.0782871782985
95605.0,2207.2580861166343
95606.0,2211.8324653684267
95607.0,2214.246285878671
95608.0,2210.4642656477517
95609.0,2202.9153824262853
95610.0,2200.6130474847932
95611.0,2210.4641992820984
95612.0,2227.876887159922
95613.0,2236.1700416104413
95614.0,2216.516535860015
95615.0,2160.6056179711727
95616.0,2075.908151744669
95617.0,1980.281215858527
95618.0,1891.8191205635674
95619.0,1822.6641935180628
95620.0,1779.9046311569698
95621.0,1769.00313323018
95622.0,1793.393499885209
95623.0,1849.4805729185478
95624.0,1922.963236519451
95625.0,1992.6669040852541
95626.0,2041.113016765962
95627.0,2063.7823551133793
95628.0,2069.125539481381
95629.0,2069.3431067702118
95630.0,2070.3049977235323
95631.0,2069.504689588968
95632.0,2062.954577614602
95633.0,2053.129828350163
95634.0,2049.0880039677822
95635.0,2057.7776130251737
95636.0,2074.645164420683
95637.0,2083.0444276357457
95638.0,2064.17901042259
95639.0,2009.764339313282
95640.0,1927.2924871219448
95641.0,1834.6364023766068
95642.0,1749.900605050231
95643.0,1685.2317047195386
95644.0,1647.7160414906884
95645.0,1642.808170726103
95646.0,1673.9273735069883
95647.0,1737.4575765265206
95648.0,1819.0703978759618
95649.0,1897.5577457652862
95650.0,1955.4014956114704
95651.0,1988.0370456080934
95652.0,2003.8641247582973
95653.0,2015.0272382408045
95654.0,2027.3355810375876
95655.0,2038.2176506128087
95656.0,2043.6171574757211
95657.0,2045.937451318117
95658.0,2054.161756186016
95659.0,2075.162363832568
95660.0,2104.308355358443
95661.0,2124.875547263366
95662.0,2117.9897658236505
95663.0,2075.289527825874
95664.0,2004.1915643480056
95665.0,1922.4957350992363
95666.0,1848.2363903283126
95667.0,1793.4935292910786
95668.0,1765.2910487149818
95669.0,1769.0257957366787
95670.0,1808.0646011580282
95671.0,1878.744671073913
95672.0,1966.6970482698334
95673.0,2050.679566001231
95674.0,2113.1468158172647
95675.0,2149.5139264839277
95676.0,2168.167525688617
95677.0,2181.2462678835964
95678.0,2194.560758447305
95679.0,2205.5481050504254
95680.0,2210.1676959174906
95681.0,2210.8454243351334
95682.0,2216.5936553127863
95683.0,2234.320086706657
95684.0,2259.435078772072
95685.0,2275.261152801215
95686.0,2262.9757678993997
95687.0,2214.273459545345
95688.0,2136.63078280001
95689.0,2047.91061420004
95690.0,1966.2128761123522
95691.0,1903.6850397665726
95692.0,1867.4197075033007
95693.0,1862.882996076582
95694.0,1893.5109041662286
95695.0,1955.709049286515
95696.0,2035.175492537642
95697.0,2110.7330805126103
95698.0,2164.8988324184397
95699.0,2193.1471754498543
95700.0,2203.9204055628934
95701.0,2209.4087619606726
95702.0,2215.4699498017967
95703.0,2219.5833457058948
95704.0,2217.7454887474983
95705.0,2212.414078593144
95706.0,2212.6277782051384
95707.0,2225.3149742364635
95708.0,2245.9010691321573
95709.0,2257.7180048667633
95710.0,2241.9471259457077
95711.0,2190.2814631781566
95712.0,2110.190878251756
95713.0,2019.5266196700097
95714.0,1936.3723498836882
95715.0,1872.8549951004406
95716.0,1836.0427134143276
95717.0,1831.3736976041498
95718.0,1862.2529899444148
95719.0,1925.0526882489191
95720.0,2005.435255348598
95721.0,2082.186355037788
95722.0,2137.784736190804
95723.0,2167.6659619217244
95724.0,2180.233354673474
95725.0,2187.638539785155
95726.0,2195.7014163696035
95727.0,2201.864784833342
95728.0,2202.0902289182436
95729.0,2198.802469550026
95730.0,2201.0094841210685
95731.0,2215.6115410796892
95732.0,2238.00872120457
95733.0,2251.510623520035
95734.0,2237.279362140726
95735.0,2186.991934888224
95736.0,2108.1054037348927
95737.0,2018.4614383103271
95738.0,1936.1372836318023
95739.0,1873.2565055048065
95740.0,1836.886811790877
95741.0,1832.4686690010915
95742.0,1863.4118951859605
95743.0,1926.0956124152274
